Al Rho=2.6989, Sig=0.nm, P=1., E=350.eV
 Angle (deg), Reflectivity
   0.000000  1.00000
   0.100000  0.988359
   0.200000  0.976842
   0.300000  0.965435
   0.400000  0.954128
   0.500000  0.942908
   0.600000  0.931763
   0.700000  0.920682
   0.800000  0.909655
   0.900000  0.898669
   1.00000  0.887714
   1.10000  0.876779
   1.20000  0.865854
   1.30000  0.854928
   1.40000  0.843989
   1.50000  0.833026
   1.60000  0.822029
   1.70000  0.810985
   1.80000  0.799882
   1.90000  0.788709
   2.00000  0.777452
   2.10000  0.766098
   2.20000  0.754632
   2.30000  0.743041
   2.40000  0.731309
   2.50000  0.719418
   2.60000  0.707353
   2.70000  0.695094
   2.80000  0.682620
   2.90000  0.669912
   3.00000  0.656946
   3.10000  0.643697
   3.20000  0.630138
   3.30000  0.616240
   3.40000  0.601973
   3.50000  0.587303
   3.60000  0.572193
   3.70000  0.556604
   3.80000  0.540495
   3.90000  0.523822
   4.00000  0.506538
   4.10000  0.488598
   4.20000  0.469956
   4.30000  0.450570
   4.40000  0.430406
   4.50000  0.409446
   4.60000  0.387694
   4.70000  0.365187
   4.80000  0.342015
   4.90000  0.318329
   5.00000  0.294357
   5.10000  0.270403
   5.20000  0.246835
   5.30000  0.224045
   5.40000  0.202410
   5.50000  0.182234
   5.60000  0.163717
   5.70000  0.146949
   5.80000  0.131920
   5.90000  0.118549
   6.00000  0.106707
   6.10000  9.624667E-02
   6.20000  8.701384E-02
   6.30000  7.886170E-02
   6.40000  7.165452E-02
   6.50000  6.527118E-02
   6.60000  5.960474E-02
   6.70000  5.456230E-02
   6.80000  5.006340E-02
   6.90000  4.603884E-02
   7.00000  4.242904E-02
   7.10000  3.918279E-02
   7.20000  3.625594E-02
   7.30000  3.361057E-02
   7.40000  3.121385E-02
   7.50000  2.903735E-02
   7.60000  2.705647E-02
   7.70000  2.524977E-02
   7.80000  2.359857E-02
   7.90000  2.208650E-02
   8.00000  2.069923E-02
   8.10000  1.942419E-02
   8.20000  1.825026E-02
   8.30000  1.716764E-02
   8.40000  1.616763E-02
   8.50000  1.524252E-02
   8.60000  1.438544E-02
   8.70000  1.359030E-02
   8.80000  1.285159E-02
   8.90000  1.216442E-02
   9.00000  1.152439E-02
   9.10000  1.092754E-02
   9.20000  1.037034E-02
   9.30000  9.849528E-03
   9.40000  9.362242E-03
   9.50000  8.905821E-03
   9.60000  8.477874E-03
   9.70000  8.076242E-03
   9.80000  7.698970E-03
   9.90000  7.344216E-03
   10.0000  7.010363E-03
   10.1000  6.695906E-03
   10.2000  6.399472E-03
   10.3000  6.119790E-03
   10.4000  5.855727E-03
   10.5000  5.606203E-03
   10.6000  5.370245E-03
   10.7000  5.146967E-03
   10.8000  4.935525E-03
   10.9000  4.735165E-03
   11.0000  4.545179E-03
   11.1000  4.364906E-03
   11.2000  4.193756E-03
   11.3000  4.031151E-03
   11.4000  3.876583E-03
   11.5000  3.729565E-03
   11.6000  3.589647E-03
   11.7000  3.456423E-03
   11.8000  3.329493E-03
   11.9000  3.208496E-03
   12.0000  3.093098E-03
   12.1000  2.982980E-03
   12.2000  2.877862E-03
   12.3000  2.777454E-03
   12.4000  2.681505E-03
   12.5000  2.589779E-03
   12.6000  2.502042E-03
   12.7000  2.418088E-03
   12.8000  2.337720E-03
   12.9000  2.260751E-03
   13.0000  2.187007E-03
   13.1000  2.116323E-03
   13.2000  2.048547E-03
   13.3000  1.983532E-03
   13.4000  1.921142E-03
   13.5000  1.861250E-03
   13.6000  1.803733E-03
   13.7000  1.748480E-03
   13.8000  1.695377E-03
   13.9000  1.644328E-03
   14.0000  1.595235E-03
   14.1000  1.548006E-03
   14.2000  1.502559E-03
   14.3000  1.458809E-03
   14.4000  1.416677E-03
   14.5000  1.376099E-03
   14.6000  1.336996E-03
   14.7000  1.299312E-03
   14.8000  1.262975E-03
   14.9000  1.227932E-03
   15.0000  1.194130E-03
   15.1000  1.161513E-03
   15.2000  1.130028E-03
   15.3000  1.099631E-03
   15.4000  1.070275E-03
   15.5000  1.041919E-03
   15.6000  1.014515E-03
   15.7000  9.880328E-04
   15.8000  9.624324E-04
   15.9000  9.376739E-04
   16.0000  9.137311E-04
   16.1000  8.905644E-04
   16.2000  8.681491E-04
   16.3000  8.464501E-04
   16.4000  8.254445E-04
   16.5000  8.051025E-04
   16.6000  7.854009E-04
   16.7000  7.663150E-04
   16.8000  7.478175E-04
   16.9000  7.298917E-04
   17.0000  7.125156E-04
   17.1000  6.956653E-04
   17.2000  6.793228E-04
   17.3000  6.634721E-04
   17.4000  6.480945E-04
   17.5000  6.331687E-04
   17.6000  6.186859E-04
   17.7000  6.046237E-04
   17.8000  5.909696E-04
   17.9000  5.777123E-04
   18.0000  5.648326E-04
   18.1000  5.523209E-04
   18.2000  5.401633E-04
   18.3000  5.283492E-04
   18.4000  5.168633E-04
   18.5000  5.057000E-04
   18.6000  4.948410E-04
   18.7000  4.842838E-04
   18.8000  4.740124E-04
   18.9000  4.640230E-04
   19.0000  4.543008E-04
   19.1000  4.448401E-04
   19.2000  4.356331E-04
   19.3000  4.266688E-04
   19.4000  4.179401E-04
   19.5000  4.094420E-04
   19.6000  4.011642E-04
   19.7000  3.931026E-04
   19.8000  3.852471E-04
   19.9000  3.775938E-04
   20.0000  3.701354E-04
   20.1000  3.628664E-04
   20.2000  3.557816E-04
   20.3000  3.488740E-04
   20.4000  3.421377E-04
   20.5000  3.355693E-04
   20.6000  3.291626E-04
   20.7000  3.229135E-04
   20.8000  3.168160E-04
   20.9000  3.108678E-04
   21.0000  3.050631E-04
   21.1000  2.993972E-04
   21.2000  2.938673E-04
   21.3000  2.884689E-04
   21.4000  2.831971E-04
   21.5000  2.780512E-04
   21.6000  2.730239E-04
   21.7000  2.681164E-04
   21.8000  2.633202E-04
   21.9000  2.586352E-04
   22.0000  2.540585E-04
   22.1000  2.495849E-04
   22.2000  2.452142E-04
   22.3000  2.409429E-04
   22.4000  2.367671E-04
   22.5000  2.326833E-04
   22.6000  2.286928E-04
   22.7000  2.247887E-04
   22.8000  2.209723E-04
   22.9000  2.172393E-04
   23.0000  2.135865E-04
   23.1000  2.100154E-04
   23.2000  2.065205E-04
   23.3000  2.031015E-04
   23.4000  1.997553E-04
   23.5000  1.964812E-04
   23.6000  1.932766E-04
   23.7000  1.901389E-04
   23.8000  1.870673E-04
   23.9000  1.840606E-04
   24.0000  1.811153E-04
   24.1000  1.782337E-04
   24.2000  1.754096E-04
   24.3000  1.726447E-04
   24.4000  1.699357E-04
   24.5000  1.672822E-04
   24.6000  1.646830E-04
   24.7000  1.621361E-04
   24.8000  1.596402E-04
   24.9000  1.571952E-04
   25.0000  1.547981E-04
   25.1000  1.524488E-04
   25.2000  1.501462E-04
   25.3000  1.478885E-04
   25.4000  1.456756E-04
   25.5000  1.435048E-04
   25.6000  1.413777E-04
   25.7000  1.392910E-04
   25.8000  1.372454E-04
   25.9000  1.352376E-04
   26.0000  1.332691E-04
   26.1000  1.313378E-04
   26.2000  1.294434E-04
   26.3000  1.275846E-04
   26.4000  1.257605E-04
   26.5000  1.239705E-04
   26.6000  1.222145E-04
   26.7000  1.204905E-04
   26.8000  1.187986E-04
   26.9000  1.171380E-04
   27.0000  1.155081E-04
   27.1000  1.139076E-04
   27.2000  1.123360E-04
   27.3000  1.107933E-04
   27.4000  1.092784E-04
   27.5000  1.077906E-04
   27.6000  1.063294E-04
   27.7000  1.048942E-04
   27.8000  1.034853E-04
   27.9000  1.021003E-04
   28.0000  1.007404E-04
   28.1000  9.940409E-05
   28.2000  9.809141E-05
   28.3000  9.680133E-05
   28.4000  9.553347E-05
   28.5000  9.428792E-05
   28.6000  9.306315E-05
   28.7000  9.186047E-05
   28.8000  9.067773E-05
   28.9000  8.951518E-05
   29.0000  8.837242E-05
   29.1000  8.724903E-05
   29.2000  8.614417E-05
   29.3000  8.505854E-05
   29.4000  8.399075E-05
   29.5000  8.294098E-05
   29.6000  8.190783E-05
   29.7000  8.089261E-05
   29.8000  7.989340E-05
   29.9000  7.891149E-05
   30.0000  7.794500E-05
   30.1000  7.699367E-05
   30.2000  7.605924E-05
   30.3000  7.513894E-05
   30.4000  7.423347E-05
   30.5000  7.334260E-05
   30.6000  7.246655E-05
   30.7000  7.160402E-05
   30.8000  7.075537E-05
   30.9000  6.992034E-05
   31.0000  6.909860E-05
   31.1000  6.828909E-05
   31.2000  6.749250E-05
   31.3000  6.670856E-05
   31.4000  6.593618E-05
   31.5000  6.517700E-05
   31.6000  6.442807E-05
   31.7000  6.369186E-05
   31.8000  6.296644E-05
   31.9000  6.225161E-05
   32.0000  6.154893E-05
   32.1000  6.085647E-05
   32.2000  6.017405E-05
   32.3000  5.950239E-05
   32.4000  5.884041E-05
   32.5000  5.818884E-05
   32.6000  5.754667E-05
   32.7000  5.691376E-05
   32.8000  5.629073E-05
   32.9000  5.567663E-05
   33.0000  5.507212E-05
   33.1000  5.447626E-05
   33.2000  5.388814E-05
   33.3000  5.330994E-05
   33.4000  5.273918E-05
   33.5000  5.217805E-05
   33.6000  5.162340E-05
   33.7000  5.107733E-05
   33.8000  5.053974E-05
   33.9000  5.000900E-05
   34.0000  4.948646E-05
   34.1000  4.897057E-05
   34.2000  4.846264E-05
   34.3000  4.796184E-05
   34.4000  4.746806E-05
   34.5000  4.698121E-05
   34.6000  4.650114E-05
   34.7000  4.602780E-05
   34.8000  4.556105E-05
   34.9000  4.510079E-05
   35.0000  4.464692E-05
   35.1000  4.419871E-05
   35.2000  4.375737E-05
   35.3000  4.332148E-05
   35.4000  4.289229E-05
   35.5000  4.246838E-05
   35.6000  4.205095E-05
   35.7000  4.163864E-05
   35.8000  4.123138E-05
   35.9000  4.083034E-05
   36.0000  4.043421E-05
   36.1000  4.004349E-05
   36.2000  3.965815E-05
   36.3000  3.927808E-05
   36.4000  3.890259E-05
   36.5000  3.853285E-05
   36.6000  3.816695E-05
   36.7000  3.780604E-05
   36.8000  3.745007E-05
   36.9000  3.709951E-05
   37.0000  3.675257E-05
   37.1000  3.641033E-05
   37.2000  3.607217E-05
   37.3000  3.573917E-05
   37.4000  3.541011E-05
   37.5000  3.508494E-05
   37.6000  3.476474E-05
   37.7000  3.444776E-05
   37.8000  3.413506E-05
   37.9000  3.382603E-05
   38.0000  3.352171E-05
   38.1000  3.322042E-05
   38.2000  3.292318E-05
   38.3000  3.262996E-05
   38.4000  3.234066E-05
   38.5000  3.205421E-05
   38.6000  3.177159E-05
   38.7000  3.149228E-05
   38.8000  3.121670E-05
   38.9000  3.094429E-05
   39.0000  3.067555E-05
   39.1000  3.040989E-05
   39.2000  3.014779E-05
   39.3000  2.988821E-05
   39.4000  2.963209E-05
   39.5000  2.937939E-05
   39.6000  2.912958E-05
   39.7000  2.888263E-05
   39.8000  2.863897E-05
   39.9000  2.839808E-05
   40.0000  2.815993E-05
   40.1000  2.792447E-05
   40.2000  2.769216E-05
   40.3000  2.746246E-05
   40.4000  2.723537E-05
   40.5000  2.701084E-05
   40.6000  2.678929E-05
   40.7000  2.657023E-05
   40.8000  2.635409E-05
   40.9000  2.613992E-05
   41.0000  2.592816E-05
   41.1000  2.571920E-05
   41.2000  2.551258E-05
   41.3000  2.530827E-05
   41.4000  2.510665E-05
   41.5000  2.490686E-05
   41.6000  2.470972E-05
   41.7000  2.451476E-05
   41.8000  2.432197E-05
   41.9000  2.413132E-05
   42.0000  2.394277E-05
   42.1000  2.375630E-05
   42.2000  2.357232E-05
   42.3000  2.338994E-05
   42.4000  2.320998E-05
   42.5000  2.303201E-05
   42.6000  2.285598E-05
   42.7000  2.268189E-05
   42.8000  2.250971E-05
   42.9000  2.233940E-05
   43.0000  2.217097E-05
   43.1000  2.200438E-05
   43.2000  2.183960E-05
   43.3000  2.167701E-05
   43.4000  2.151542E-05
   43.5000  2.135597E-05
   43.6000  2.119864E-05
   43.7000  2.104263E-05
   43.8000  2.088832E-05
   43.9000  2.073568E-05
   44.0000  2.058507E-05
   44.1000  2.043571E-05
   44.2000  2.028797E-05
   44.3000  2.014184E-05
   44.4000  1.999727E-05
   44.5000  1.985427E-05
   44.6000  1.971280E-05
   44.7000  1.957286E-05
   44.8000  1.943442E-05
   44.9000  1.929711E-05
   45.0000  1.916164E-05
   45.1000  1.902762E-05
   45.2000  1.889468E-05
   45.3000  1.876353E-05
   45.4000  1.863342E-05
   45.5000  1.850470E-05
   45.6000  1.837703E-05
   45.7000  1.825106E-05
   45.8000  1.812643E-05
   45.9000  1.800279E-05
   46.0000  1.788115E-05
   46.1000  1.776013E-05
   46.2000  1.764041E-05
   46.3000  1.752195E-05
   46.4000  1.740508E-05
   46.5000  1.728881E-05
   46.6000  1.717410E-05
   46.7000  1.706027E-05
   46.8000  1.694766E-05
   46.9000  1.683625E-05
   47.0000  1.672601E-05
   47.1000  1.661694E-05
   47.2000  1.650872E-05
   47.3000  1.640195E-05
   47.4000  1.629568E-05
   47.5000  1.619086E-05
   47.6000  1.608683E-05
   47.7000  1.598421E-05
   47.8000  1.588237E-05
   47.9000  1.578160E-05
   48.0000  1.568159E-05
   48.1000  1.558295E-05
   48.2000  1.548503E-05
   48.3000  1.538786E-05
   48.4000  1.529200E-05
   48.5000  1.519716E-05
   48.6000  1.510303E-05
   48.7000  1.500988E-05
   48.8000  1.491743E-05
   48.9000  1.482623E-05
   49.0000  1.473542E-05
   49.1000  1.464614E-05
   49.2000  1.455723E-05
   49.3000  1.446925E-05
   49.4000  1.438192E-05
   49.5000  1.429579E-05
   49.6000  1.421027E-05
   49.7000  1.412566E-05
   49.8000  1.404166E-05
   49.9000  1.395910E-05
   50.0000  1.387686E-05
   50.1000  1.379520E-05
   50.2000  1.371440E-05
   50.3000  1.363445E-05
   50.4000  1.355534E-05
   50.5000  1.347680E-05
   50.6000  1.339907E-05
   50.7000  1.332217E-05
   50.8000  1.324581E-05
   50.9000  1.317025E-05
   51.0000  1.309521E-05
   51.1000  1.302097E-05
   51.2000  1.294778E-05
   51.3000  1.287483E-05
   51.4000  1.280264E-05
   51.5000  1.273096E-05
   51.6000  1.266003E-05
   51.7000  1.258985E-05
   51.8000  1.252041E-05
   51.9000  1.245144E-05
   52.0000  1.238320E-05
   52.1000  1.231542E-05
   52.2000  1.224836E-05
   52.3000  1.218201E-05
   52.4000  1.211611E-05
   52.5000  1.205089E-05
   52.6000  1.198613E-05
   52.7000  1.192204E-05
   52.8000  1.185839E-05
   52.9000  1.179566E-05
   53.0000  1.173309E-05
   53.1000  1.167119E-05
   53.2000  1.160995E-05
   53.3000  1.154911E-05
   53.4000  1.148891E-05
   53.5000  1.142912E-05
   53.6000  1.137019E-05
   53.7000  1.131141E-05
   53.8000  1.125326E-05
   53.9000  1.119573E-05
   54.0000  1.113857E-05
   54.1000  1.108201E-05
   54.2000  1.102583E-05
   54.3000  1.097025E-05
   54.4000  1.091525E-05
   54.5000  1.086038E-05
   54.6000  1.080633E-05
   54.7000  1.075262E-05
   54.8000  1.069926E-05
   54.9000  1.064669E-05
   55.0000  1.059424E-05
   55.1000  1.054211E-05
   55.2000  1.049100E-05
   55.3000  1.043999E-05
   55.4000  1.038930E-05
   55.5000  1.033915E-05
   55.6000  1.028954E-05
   55.7000  1.024025E-05
   55.8000  1.019148E-05
   55.9000  1.014302E-05
   56.0000  1.009487E-05
   56.1000  1.004745E-05
   56.2000  1.000011E-05
   56.3000  9.953276E-06
   56.4000  9.906737E-06
   56.5000  9.860701E-06
   56.6000  9.815162E-06
   56.7000  9.769696E-06
   56.8000  9.724930E-06
   56.9000  9.680441E-06
   57.0000  9.636437E-06
   57.1000  9.592703E-06
   57.2000  9.549232E-06
   57.3000  9.506241E-06
   57.4000  9.463507E-06
   57.5000  9.421035E-06
   57.6000  9.379026E-06
   57.7000  9.337476E-06
   57.8000  9.296385E-06
   57.9000  9.255335E-06
   58.0000  9.214536E-06
   58.1000  9.174384E-06
   58.2000  9.134477E-06
   58.3000  9.094804E-06
   58.4000  9.055775E-06
   58.5000  9.016775E-06
   58.6000  8.978009E-06
   58.7000  8.939670E-06
   58.8000  8.901759E-06
   58.9000  8.864072E-06
   59.0000  8.826607E-06
   59.1000  8.789561E-06
   59.2000  8.752731E-06
   59.3000  8.716313E-06
   59.4000  8.680110E-06
   59.5000  8.644118E-06
   59.6000  8.608723E-06
   59.7000  8.573343E-06
   59.8000  8.538168E-06
   59.9000  8.503582E-06
   60.0000  8.469196E-06
   60.1000  8.435008E-06
   60.2000  8.400830E-06
   60.3000  8.367227E-06
   60.4000  8.334006E-06
   60.5000  8.300789E-06
   60.6000  8.268138E-06
   60.7000  8.235484E-06
   60.8000  8.203209E-06
   60.9000  8.171114E-06
   61.0000  8.139389E-06
   61.1000  8.107846E-06
   61.2000  8.076482E-06
   61.3000  8.045296E-06
   61.4000  8.014651E-06
   61.5000  7.984181E-06
   61.6000  7.953701E-06
   61.7000  7.923760E-06
   61.8000  7.893982E-06
   61.9000  7.864377E-06
   62.0000  7.834932E-06
   62.1000  7.805836E-06
   62.2000  7.776903E-06
   62.3000  7.748310E-06
   62.4000  7.719697E-06
   62.5000  7.691600E-06
   62.6000  7.663483E-06
   62.7000  7.635875E-06
   62.8000  7.608243E-06
   62.9000  7.580941E-06
   63.0000  7.553789E-06
   63.1000  7.526787E-06
   63.2000  7.500286E-06
   63.3000  7.473755E-06
   63.4000  7.447543E-06
   63.5000  7.421476E-06
   63.6000  7.395549E-06
   63.7000  7.369941E-06
   63.8000  7.344472E-06
   63.9000  7.319140E-06
   64.0000  7.294118E-06
   64.1000  7.269234E-06
   64.2000  7.244653E-06
   64.3000  7.220037E-06
   64.4000  7.195896E-06
   64.5000  7.171712E-06
   64.6000  7.147832E-06
   64.7000  7.124078E-06
   64.8000  7.100621E-06
   64.9000  7.077124E-06
   65.0000  7.054087E-06
   65.1000  7.031007E-06
   65.2000  7.008217E-06
   65.3000  6.985552E-06
   65.4000  6.963171E-06
   65.5000  6.940912E-06
   65.6000  6.918772E-06
   65.7000  6.896913E-06
   65.8000  6.875008E-06
   65.9000  6.853548E-06
   66.0000  6.832036E-06
   66.1000  6.810806E-06
   66.2000  6.789686E-06
   66.3000  6.768839E-06
   66.4000  6.747943E-06
   66.5000  6.727319E-06
   66.6000  6.706967E-06
   66.7000  6.686721E-06
   66.8000  6.666582E-06
   66.9000  6.646549E-06
   67.0000  6.626783E-06
   67.1000  6.607120E-06
   67.2000  6.587561E-06
   67.3000  6.568265E-06
   67.4000  6.549069E-06
   67.5000  6.529976E-06
   67.6000  6.510981E-06
   67.7000  6.492244E-06
   67.8000  6.473762E-06
   67.9000  6.455378E-06
   68.0000  6.436934E-06
   68.1000  6.418743E-06
   68.2000  6.400800E-06
   68.3000  6.382954E-06
   68.4000  6.365202E-06
   68.5000  6.347542E-06
   68.6000  6.329974E-06
   68.7000  6.312651E-06
   68.8000  6.295573E-06
   68.9000  6.278432E-06
   69.0000  6.261534E-06
   69.1000  6.244722E-06
   69.2000  6.228150E-06
   69.3000  6.211514E-06
   69.4000  6.195117E-06
   69.5000  6.178955E-06
   69.6000  6.162729E-06
   69.7000  6.146736E-06
   69.8000  6.130827E-06
   69.9000  6.115002E-06
   70.0000  6.099409E-06
   70.1000  6.084046E-06
   70.2000  6.068465E-06
   70.3000  6.053266E-06
   70.4000  6.038144E-06
   70.5000  6.023100E-06
   70.6000  6.008136E-06
   70.7000  5.993398E-06
   70.8000  5.978884E-06
   70.9000  5.964299E-06
   71.0000  5.949791E-06
   71.1000  5.935503E-06
   71.2000  5.921292E-06
   71.3000  5.907154E-06
   71.4000  5.893237E-06
   71.5000  5.879393E-06
   71.6000  5.865621E-06
   71.7000  5.852066E-06
   71.8000  5.838437E-06
   71.9000  5.825169E-06
   72.0000  5.811828E-06
   72.1000  5.798556E-06
   72.2000  5.785497E-06
   72.3000  5.772507E-06
   72.4000  5.759586E-06
   72.5000  5.746876E-06
   72.6000  5.734233E-06
   72.7000  5.721798E-06
   72.8000  5.709289E-06
   72.9000  5.696845E-06
   73.0000  5.684749E-06
   73.1000  5.672578E-06
   73.2000  5.660472E-06
   73.3000  5.648570E-06
   73.4000  5.636730E-06
   73.5000  5.624955E-06
   73.6000  5.613384E-06
   73.7000  5.601873E-06
   73.8000  5.590425E-06
   73.9000  5.579037E-06
   74.0000  5.567852E-06
   74.1000  5.556724E-06
   74.2000  5.545658E-06
   74.3000  5.534651E-06
   74.4000  5.523705E-06
   74.5000  5.512955E-06
   74.6000  5.502402E-06
   74.7000  5.491768E-06
   74.8000  5.481331E-06
   74.9000  5.470811E-06
   75.0000  5.460624E-06
   75.1000  5.450357E-06
   75.2000  5.440283E-06
   75.3000  5.430264E-06
   75.4000  5.420163E-06
   75.5000  5.410392E-06
   75.6000  5.400674E-06
   75.7000  5.391010E-06
   75.8000  5.381400E-06
   75.9000  5.371844E-06
   76.0000  5.362477E-06
   76.1000  5.353162E-06
   76.2000  5.343899E-06
   76.3000  5.334689E-06
   76.4000  5.325531E-06
   76.5000  5.316695E-06
   76.6000  5.307773E-06
   76.7000  5.298903E-06
   76.8000  5.290218E-06
   76.9000  5.281583E-06
   77.0000  5.272865E-06
   77.1000  5.264462E-06
   77.2000  5.255975E-06
   77.3000  5.247671E-06
   77.4000  5.239416E-06
