Si Rho=2.33, Sig=0.nm, P=1., E=350.eV
 Angle (deg), Reflectivity
   0.000000  1.00000
   0.100000  0.984088
   0.200000  0.968412
   0.300000  0.952951
   0.400000  0.937687
   0.500000  0.922599
   0.600000  0.907672
   0.700000  0.892887
   0.800000  0.878228
   0.900000  0.863678
   1.00000  0.849223
   1.10000  0.834846
   1.20000  0.820532
   1.30000  0.806267
   1.40000  0.792035
   1.50000  0.777821
   1.60000  0.763611
   1.70000  0.749390
   1.80000  0.735143
   1.90000  0.720853
   2.00000  0.706506
   2.10000  0.692086
   2.20000  0.677576
   2.30000  0.662959
   2.40000  0.648219
   2.50000  0.633336
   2.60000  0.618294
   2.70000  0.603071
   2.80000  0.587650
   2.90000  0.572008
   3.00000  0.556126
   3.10000  0.539981
   3.20000  0.523553
   3.30000  0.506819
   3.40000  0.489758
   3.50000  0.472351
   3.60000  0.454579
   3.70000  0.436428
   3.80000  0.417888
   3.90000  0.398957
   4.00000  0.379644
   4.10000  0.359971
   4.20000  0.339978
   4.30000  0.319729
   4.40000  0.299317
   4.50000  0.278866
   4.60000  0.258530
   4.70000  0.238494
   4.80000  0.218966
   4.90000  0.200154
   5.00000  0.182258
   5.10000  0.165445
   5.20000  0.149835
   5.30000  0.135496
   5.40000  0.122445
   5.50000  0.110652
   5.60000  0.100055
   5.70000  9.057102E-02
   5.80000  8.210357E-02
   5.90000  7.455394E-02
   6.00000  6.782475E-02
   6.10000  6.182467E-02
   6.20000  5.646953E-02
   6.30000  5.168368E-02
   6.40000  4.739941E-02
   6.50000  4.355712E-02
   6.60000  4.010442E-02
   6.70000  3.699543E-02
   6.80000  3.419010E-02
   6.90000  3.165348E-02
   7.00000  2.935510E-02
   7.10000  2.726834E-02
   7.20000  2.536990E-02
   7.30000  2.363947E-02
   7.40000  2.205917E-02
   7.50000  2.061333E-02
   7.60000  1.928816E-02
   7.70000  1.807151E-02
   7.80000  1.695268E-02
   7.90000  1.592210E-02
   8.00000  1.497136E-02
   8.10000  1.409300E-02
   8.20000  1.328029E-02
   8.30000  1.252733E-02
   8.40000  1.182878E-02
   8.50000  1.117985E-02
   8.60000  1.057628E-02
   8.70000  1.001424E-02
   8.80000  9.490211E-03
   8.90000  9.001114E-03
   9.00000  8.544108E-03
   9.10000  8.116652E-03
   9.20000  7.716404E-03
   9.30000  7.341274E-03
   9.40000  6.989352E-03
   9.50000  6.658891E-03
   9.60000  6.348305E-03
   9.70000  6.056136E-03
   9.80000  5.781073E-03
   9.90000  5.521885E-03
   10.0000  5.277467E-03
   10.1000  5.046808E-03
   10.2000  4.828956E-03
   10.3000  4.623051E-03
   10.4000  4.428304E-03
   10.5000  4.243978E-03
   10.6000  4.069387E-03
   10.7000  3.903931E-03
   10.8000  3.747008E-03
   10.9000  3.598103E-03
   11.0000  3.456707E-03
   11.1000  3.322363E-03
   11.2000  3.194653E-03
   11.3000  3.073169E-03
   11.4000  2.957550E-03
   11.5000  2.847453E-03
   11.6000  2.742556E-03
   11.7000  2.642566E-03
   11.8000  2.547205E-03
   11.9000  2.456206E-03
   12.0000  2.369333E-03
   12.1000  2.286353E-03
   12.2000  2.207068E-03
   12.3000  2.131270E-03
   12.4000  2.058774E-03
   12.5000  1.989411E-03
   12.6000  1.923012E-03
   12.7000  1.859425E-03
   12.8000  1.798502E-03
   12.9000  1.740114E-03
   13.0000  1.684134E-03
   13.1000  1.630438E-03
   13.2000  1.578913E-03
   13.3000  1.529458E-03
   13.4000  1.481966E-03
   13.5000  1.436348E-03
   13.6000  1.392509E-03
   13.7000  1.350372E-03
   13.8000  1.309854E-03
   13.9000  1.270874E-03
   14.0000  1.233370E-03
   14.1000  1.197273E-03
   14.2000  1.162517E-03
   14.3000  1.129040E-03
   14.4000  1.096789E-03
   14.5000  1.065708E-03
   14.6000  1.035744E-03
   14.7000  1.006853E-03
   14.8000  9.789851E-04
   14.9000  9.520945E-04
   15.0000  9.261465E-04
   15.1000  9.010935E-04
   15.2000  8.769045E-04
   15.3000  8.535410E-04
   15.4000  8.309651E-04
   15.5000  8.091514E-04
   15.6000  7.880648E-04
   15.7000  7.676788E-04
   15.8000  7.479623E-04
   15.9000  7.288930E-04
   16.0000  7.104396E-04
   16.1000  6.925802E-04
   16.2000  6.752932E-04
   16.3000  6.585534E-04
   16.4000  6.423444E-04
   16.5000  6.266421E-04
   16.6000  6.114293E-04
   16.7000  5.966869E-04
   16.8000  5.823959E-04
   16.9000  5.685440E-04
   17.0000  5.551087E-04
   17.1000  5.420790E-04
   17.2000  5.294411E-04
   17.3000  5.171754E-04
   17.4000  5.052743E-04
   17.5000  4.937214E-04
   17.6000  4.825055E-04
   17.7000  4.716158E-04
   17.8000  4.610399E-04
   17.9000  4.507659E-04
   18.0000  4.407839E-04
   18.1000  4.310850E-04
   18.2000  4.216566E-04
   18.3000  4.124940E-04
   18.4000  4.035854E-04
   18.5000  3.949210E-04
   18.6000  3.864953E-04
   18.7000  3.782996E-04
   18.8000  3.703266E-04
   18.9000  3.625680E-04
   19.0000  3.550175E-04
   19.1000  3.476673E-04
   19.2000  3.405132E-04
   19.3000  3.335460E-04
   19.4000  3.267624E-04
   19.5000  3.201552E-04
   19.6000  3.137192E-04
   19.7000  3.074497E-04
   19.8000  3.013405E-04
   19.9000  2.953856E-04
   20.0000  2.895821E-04
   20.1000  2.839258E-04
   20.2000  2.784111E-04
   20.3000  2.730328E-04
   20.4000  2.677886E-04
   20.5000  2.626734E-04
   20.6000  2.576837E-04
   20.7000  2.528161E-04
   20.8000  2.480660E-04
   20.9000  2.434316E-04
   21.0000  2.389086E-04
   21.1000  2.344916E-04
   21.2000  2.301813E-04
   21.3000  2.259726E-04
   21.4000  2.218630E-04
   21.5000  2.178498E-04
   21.6000  2.139292E-04
   21.7000  2.101014E-04
   21.8000  2.063593E-04
   21.9000  2.027043E-04
   22.0000  1.991340E-04
   22.1000  1.956431E-04
   22.2000  1.922317E-04
   22.3000  1.888958E-04
   22.4000  1.856365E-04
   22.5000  1.824490E-04
   22.6000  1.793335E-04
   22.7000  1.762843E-04
   22.8000  1.733036E-04
   22.9000  1.703871E-04
   23.0000  1.675348E-04
   23.1000  1.647444E-04
   23.2000  1.620135E-04
   23.3000  1.593426E-04
   23.4000  1.567266E-04
   23.5000  1.541677E-04
   23.6000  1.516620E-04
   23.7000  1.492099E-04
   23.8000  1.468085E-04
   23.9000  1.444584E-04
   24.0000  1.421560E-04
   24.1000  1.399015E-04
   24.2000  1.376933E-04
   24.3000  1.355302E-04
   24.4000  1.334121E-04
   24.5000  1.313363E-04
   24.6000  1.293019E-04
   24.7000  1.273095E-04
   24.8000  1.253574E-04
   24.9000  1.234433E-04
   25.0000  1.215670E-04
   25.1000  1.197291E-04
   25.2000  1.179261E-04
   25.3000  1.161591E-04
   25.4000  1.144268E-04
   25.5000  1.127276E-04
   25.6000  1.110617E-04
   25.7000  1.094281E-04
   25.8000  1.078257E-04
   25.9000  1.062538E-04
   26.0000  1.047122E-04
   26.1000  1.031993E-04
   26.2000  1.017155E-04
   26.3000  1.002590E-04
   26.4000  9.883055E-05
   26.5000  9.742830E-05
   26.6000  9.605228E-05
   26.7000  9.470140E-05
   26.8000  9.337573E-05
   26.9000  9.207416E-05
   27.0000  9.079619E-05
   27.1000  8.954197E-05
   27.2000  8.831039E-05
   27.3000  8.710101E-05
   27.4000  8.591399E-05
   27.5000  8.474718E-05
   27.6000  8.360182E-05
   27.7000  8.247644E-05
   27.8000  8.137168E-05
   27.9000  8.028555E-05
   28.0000  7.921931E-05
   28.1000  7.817095E-05
   28.2000  7.714121E-05
   28.3000  7.612968E-05
   28.4000  7.513505E-05
   28.5000  7.415844E-05
   28.6000  7.319806E-05
   28.7000  7.225410E-05
   28.8000  7.132621E-05
   28.9000  7.041460E-05
   29.0000  6.951755E-05
   29.1000  6.863614E-05
   29.2000  6.776967E-05
   29.3000  6.691737E-05
   29.4000  6.607948E-05
   29.5000  6.525521E-05
   29.6000  6.444482E-05
   29.7000  6.364757E-05
   29.8000  6.286414E-05
   29.9000  6.209251E-05
   30.0000  6.133419E-05
   30.1000  6.058766E-05
   30.2000  5.985400E-05
   30.3000  5.913170E-05
   30.4000  5.842055E-05
   30.5000  5.772161E-05
   30.6000  5.703344E-05
   30.7000  5.635662E-05
   30.8000  5.569019E-05
   30.9000  5.503394E-05
   31.0000  5.438850E-05
   31.1000  5.375290E-05
   31.2000  5.312777E-05
   31.3000  5.251131E-05
   31.4000  5.190497E-05
   31.5000  5.130855E-05
   31.6000  5.072039E-05
   31.7000  5.014258E-05
   31.8000  4.957196E-05
   31.9000  4.901139E-05
   32.0000  4.845847E-05
   32.1000  4.791455E-05
   32.2000  4.737803E-05
   32.3000  4.685024E-05
   32.4000  4.633097E-05
   32.5000  4.581874E-05
   32.6000  4.531409E-05
   32.7000  4.481692E-05
   32.8000  4.432709E-05
   32.9000  4.384449E-05
   33.0000  4.336902E-05
   33.1000  4.290119E-05
   33.2000  4.243892E-05
   33.3000  4.198474E-05
   33.4000  4.153590E-05
   33.5000  4.109428E-05
   33.6000  4.065847E-05
   33.7000  4.022964E-05
   33.8000  3.980644E-05
   33.9000  3.939001E-05
   34.0000  3.897900E-05
   34.1000  3.857334E-05
   34.2000  3.817418E-05
   34.3000  3.778077E-05
   34.4000  3.739185E-05
   34.5000  3.700914E-05
   34.6000  3.663134E-05
   34.7000  3.625959E-05
   34.8000  3.589200E-05
   34.9000  3.553027E-05
   35.0000  3.517314E-05
   35.1000  3.482113E-05
   35.2000  3.447416E-05
   35.3000  3.413159E-05
   35.4000  3.379392E-05
   35.5000  3.346050E-05
   35.6000  3.313182E-05
   35.7000  3.280729E-05
   35.8000  3.248790E-05
   35.9000  3.217197E-05
   36.0000  3.186053E-05
   36.1000  3.155349E-05
   36.2000  3.125030E-05
   36.3000  3.095086E-05
   36.4000  3.065564E-05
   36.5000  3.036410E-05
   36.6000  3.007716E-05
   36.7000  2.979326E-05
   36.8000  2.951337E-05
   36.9000  2.923690E-05
   37.0000  2.896433E-05
   37.1000  2.869509E-05
   37.2000  2.842914E-05
   37.3000  2.816693E-05
   37.4000  2.790790E-05
   37.5000  2.765202E-05
   37.6000  2.739973E-05
   37.7000  2.715050E-05
   37.8000  2.690428E-05
   37.9000  2.666150E-05
   38.0000  2.642163E-05
   38.1000  2.618513E-05
   38.2000  2.595100E-05
   38.3000  2.571969E-05
   38.4000  2.549204E-05
   38.5000  2.526667E-05
   38.6000  2.504443E-05
   38.7000  2.482485E-05
   38.8000  2.460788E-05
   38.9000  2.439348E-05
   39.0000  2.418164E-05
   39.1000  2.397273E-05
   39.2000  2.376629E-05
   39.3000  2.356229E-05
   39.4000  2.336070E-05
   39.5000  2.316148E-05
   39.6000  2.296460E-05
   39.7000  2.277045E-05
   39.8000  2.257859E-05
   39.9000  2.238896E-05
   40.0000  2.220155E-05
   40.1000  2.201633E-05
   40.2000  2.183328E-05
   40.3000  2.165236E-05
   40.4000  2.147353E-05
   40.5000  2.129680E-05
   40.6000  2.112249E-05
   40.7000  2.095021E-05
   40.8000  2.077954E-05
   40.9000  2.061084E-05
   41.0000  2.044447E-05
   41.1000  2.028001E-05
   41.2000  2.011708E-05
   41.3000  1.995640E-05
   41.4000  1.979718E-05
   41.5000  1.964018E-05
   41.6000  1.948496E-05
   41.7000  1.933116E-05
   41.8000  1.917948E-05
   41.9000  1.902954E-05
   42.0000  1.888094E-05
   42.1000  1.873404E-05
   42.2000  1.858917E-05
   42.3000  1.844560E-05
   42.4000  1.830400E-05
   42.5000  1.816367E-05
   42.6000  1.802492E-05
   42.7000  1.788776E-05
   42.8000  1.775214E-05
   42.9000  1.761805E-05
   43.0000  1.748548E-05
   43.1000  1.735441E-05
   43.2000  1.722448E-05
   43.3000  1.709636E-05
   43.4000  1.696933E-05
   43.5000  1.684374E-05
   43.6000  1.671956E-05
   43.7000  1.659645E-05
   43.8000  1.647537E-05
   43.9000  1.635499E-05
   44.0000  1.623598E-05
   44.1000  1.611860E-05
   44.2000  1.600223E-05
   44.3000  1.588684E-05
   44.4000  1.577336E-05
   44.5000  1.566054E-05
   44.6000  1.554896E-05
   44.7000  1.543894E-05
   44.8000  1.532984E-05
   44.9000  1.522164E-05
   45.0000  1.511496E-05
   45.1000  1.500915E-05
   45.2000  1.490453E-05
   45.3000  1.480106E-05
   45.4000  1.469844E-05
   45.5000  1.459696E-05
   45.6000  1.449661E-05
   45.7000  1.439736E-05
   45.8000  1.429922E-05
   45.9000  1.420187E-05
   46.0000  1.410560E-05
   46.1000  1.401039E-05
   46.2000  1.391623E-05
   46.3000  1.382283E-05
   46.4000  1.373046E-05
   46.5000  1.363911E-05
   46.6000  1.354876E-05
   46.7000  1.345885E-05
   46.8000  1.337050E-05
   46.9000  1.328256E-05
   47.0000  1.319558E-05
   47.1000  1.310957E-05
   47.2000  1.302424E-05
   47.3000  1.294010E-05
   47.4000  1.285663E-05
   47.5000  1.277380E-05
   47.6000  1.269215E-05
   47.7000  1.261087E-05
   47.8000  1.253075E-05
   47.9000  1.245124E-05
   48.0000  1.237260E-05
   48.1000  1.229457E-05
   48.2000  1.221765E-05
   48.3000  1.214106E-05
   48.4000  1.206557E-05
   48.5000  1.199065E-05
   48.6000  1.191655E-05
   48.7000  1.184301E-05
   48.8000  1.177028E-05
   48.9000  1.169834E-05
   49.0000  1.162695E-05
   49.1000  1.155633E-05
   49.2000  1.148625E-05
   49.3000  1.141693E-05
   49.4000  1.134812E-05
   49.5000  1.128032E-05
   49.6000  1.121301E-05
   49.7000  1.114620E-05
   49.8000  1.108012E-05
   49.9000  1.101477E-05
   50.0000  1.094989E-05
   50.1000  1.088573E-05
   50.2000  1.082203E-05
   50.3000  1.075903E-05
   50.4000  1.069649E-05
   50.5000  1.063487E-05
   50.6000  1.057346E-05
   50.7000  1.051272E-05
   50.8000  1.045242E-05
   50.9000  1.039301E-05
   51.0000  1.033402E-05
   51.1000  1.027545E-05
   51.2000  1.021753E-05
   51.3000  1.016002E-05
   51.4000  1.010314E-05
   51.5000  1.004666E-05
   51.6000  9.991028E-06
   51.7000  9.935562E-06
   51.8000  9.880710E-06
   51.9000  9.826455E-06
   52.0000  9.772365E-06
   52.1000  9.719086E-06
   52.2000  9.666178E-06
   52.3000  9.613853E-06
   52.4000  9.561889E-06
   52.5000  9.510286E-06
   52.6000  9.459464E-06
   52.7000  9.408993E-06
   52.8000  9.358656E-06
   52.9000  9.309083E-06
   53.0000  9.259851E-06
   53.1000  9.211163E-06
   53.2000  9.162806E-06
   53.3000  9.114987E-06
   53.4000  9.067488E-06
   53.5000  9.020312E-06
   53.6000  8.973658E-06
   53.7000  8.927523E-06
   53.8000  8.881494E-06
   53.9000  8.836178E-06
   54.0000  8.791166E-06
   54.1000  8.746452E-06
   54.2000  8.702238E-06
   54.3000  8.658517E-06
   54.4000  8.614886E-06
   54.5000  8.571938E-06
   54.6000  8.529078E-06
   54.7000  8.486893E-06
   54.8000  8.444791E-06
   54.9000  8.403158E-06
   55.0000  8.361798E-06
   55.1000  8.320902E-06
   55.2000  8.280466E-06
   55.3000  8.240293E-06
   55.4000  8.200188E-06
   55.5000  8.160723E-06
   55.6000  8.121514E-06
   55.7000  8.082749E-06
   55.8000  8.044232E-06
   55.9000  8.005962E-06
   56.0000  7.967938E-06
   56.1000  7.930531E-06
   56.2000  7.893364E-06
   56.3000  7.856434E-06
   56.4000  7.819734E-06
   56.5000  7.783456E-06
   56.6000  7.747405E-06
   56.7000  7.711766E-06
   56.8000  7.676352E-06
   56.9000  7.641342E-06
   57.0000  7.606552E-06
   57.1000  7.571981E-06
   57.2000  7.537805E-06
   57.3000  7.503844E-06
   57.4000  7.470094E-06
   57.5000  7.436730E-06
   57.6000  7.403575E-06
   57.7000  7.370802E-06
   57.8000  7.338232E-06
   57.9000  7.306040E-06
   58.0000  7.273870E-06
   58.1000  7.242247E-06
   58.2000  7.210646E-06
   58.3000  7.179409E-06
   58.4000  7.148538E-06
   58.5000  7.117682E-06
   58.6000  7.087358E-06
   58.7000  7.057048E-06
   58.8000  7.027092E-06
   58.9000  6.997318E-06
   59.0000  6.967894E-06
   59.1000  6.938479E-06
   59.2000  6.909577E-06
   59.3000  6.880850E-06
   59.4000  6.852296E-06
   59.5000  6.823912E-06
   59.6000  6.795865E-06
   59.7000  6.767987E-06
   59.8000  6.740440E-06
   59.9000  6.713056E-06
   60.0000  6.685835E-06
   60.1000  6.658776E-06
   60.2000  6.632041E-06
   60.3000  6.605630E-06
   60.4000  6.579208E-06
   60.5000  6.553106E-06
   60.6000  6.527157E-06
   60.7000  6.501521E-06
   60.8000  6.476037E-06
   60.9000  6.450701E-06
   61.0000  6.425675E-06
   61.1000  6.400793E-06
   61.2000  6.376058E-06
   61.3000  6.351624E-06
   61.4000  6.327331E-06
   61.5000  6.303180E-06
   61.6000  6.279326E-06
   61.7000  6.255611E-06
   61.8000  6.232032E-06
   61.9000  6.208746E-06
   62.0000  6.185592E-06
   62.1000  6.162573E-06
   62.2000  6.139840E-06
   62.3000  6.117239E-06
   62.4000  6.094765E-06
   62.5000  6.072572E-06
   62.6000  6.050355E-06
   62.7000  6.028416E-06
   62.8000  6.006755E-06
   62.9000  5.985217E-06
   63.0000  5.963799E-06
   63.1000  5.942655E-06
   63.2000  5.921633E-06
   63.3000  5.900577E-06
   63.4000  5.879791E-06
   63.5000  5.859419E-06
   63.6000  5.838866E-06
   63.7000  5.818724E-06
   63.8000  5.798550E-06
   63.9000  5.778633E-06
   64.0000  5.758830E-06
   64.1000  5.739431E-06
   64.2000  5.719847E-06
   64.3000  5.700373E-06
   64.4000  5.681300E-06
   64.5000  5.662332E-06
   64.6000  5.643472E-06
   64.7000  5.624714E-06
   64.8000  5.606204E-06
   64.9000  5.587656E-06
   65.0000  5.569496E-06
   65.1000  5.551294E-06
   65.2000  5.533334E-06
   65.3000  5.515476E-06
   65.4000  5.497858E-06
   65.5000  5.480195E-06
   65.6000  5.462629E-06
   65.7000  5.445302E-06
   65.8000  5.428351E-06
   65.9000  5.411213E-06
   66.0000  5.394307E-06
   66.1000  5.377497E-06
   66.2000  5.360917E-06
   66.3000  5.344427E-06
   66.4000  5.328029E-06
   66.5000  5.311720E-06
   66.6000  5.295638E-06
   66.7000  5.279644E-06
   66.8000  5.263739E-06
   66.9000  5.247919E-06
   67.0000  5.232459E-06
   67.1000  5.216810E-06
   67.2000  5.201520E-06
   67.3000  5.186176E-06
   67.4000  5.171052E-06
   67.5000  5.156011E-06
   67.6000  5.141050E-06
   67.7000  5.126306E-06
   67.8000  5.111641E-06
   67.9000  5.097056E-06
   68.0000  5.082685E-06
   68.1000  5.068258E-06
   68.2000  5.054041E-06
   68.3000  5.040034E-06
   68.4000  5.025972E-06
   68.5000  5.012117E-06
   68.6000  4.998206E-06
   68.7000  4.984502E-06
   68.8000  4.971003E-06
   68.9000  4.957578E-06
   69.0000  4.944094E-06
   69.1000  4.930944E-06
   69.2000  4.917734E-06
   69.3000  4.904728E-06
   69.4000  4.891790E-06
   69.5000  4.878923E-06
   69.6000  4.866255E-06
   69.7000  4.853525E-06
   69.8000  4.840994E-06
   69.9000  4.828659E-06
   70.0000  4.816262E-06
   70.1000  4.804062E-06
   70.2000  4.791797E-06
   70.3000  4.779728E-06
   70.4000  4.767851E-06
   70.5000  4.756039E-06
   70.6000  4.744291E-06
   70.7000  4.732606E-06
   70.8000  4.721111E-06
   70.9000  4.709551E-06
   71.0000  4.698182E-06
   71.1000  4.686872E-06
   71.2000  4.675625E-06
   71.3000  4.664688E-06
   71.4000  4.653562E-06
   71.5000  4.642621E-06
   71.6000  4.631739E-06
   71.7000  4.621040E-06
   71.8000  4.610400E-06
   71.9000  4.599819E-06
   72.0000  4.589294E-06
   72.1000  4.578827E-06
   72.2000  4.568541E-06
   72.3000  4.558186E-06
   72.4000  4.548136E-06
   72.5000  4.538017E-06
   72.6000  4.528076E-06
   72.7000  4.518189E-06
   72.8000  4.508358E-06
   72.9000  4.498701E-06
   73.0000  4.488977E-06
   73.1000  4.479428E-06
   73.2000  4.469930E-06
   73.3000  4.460487E-06
   73.4000  4.451094E-06
   73.5000  4.441995E-06
   73.6000  4.432707E-06
   73.7000  4.423709E-06
   73.8000  4.414642E-06
   73.9000  4.405626E-06
   74.0000  4.396780E-06
   74.1000  4.387983E-06
   74.2000  4.379235E-06
   74.3000  4.370536E-06
   74.4000  4.362005E-06
   74.5000  4.353522E-06
   74.6000  4.345088E-06
   74.7000  4.336819E-06
   74.8000  4.328479E-06
   74.9000  4.320304E-06
   75.0000  4.312176E-06
   75.1000  4.304095E-06
   75.2000  4.296058E-06
   75.3000  4.288187E-06
   75.4000  4.280241E-06
   75.5000  4.272460E-06
   75.6000  4.264840E-06
   75.7000  4.257147E-06
   75.8000  4.249616E-06
   75.9000  4.242012E-06
   76.0000  4.234685E-06
   76.1000  4.227285E-06
   76.2000  4.220043E-06
   76.3000  4.212845E-06
   76.4000  4.205689E-06
   76.5000  4.198577E-06
   76.6000  4.191505E-06
   76.7000  4.184475E-06
   76.8000  4.177603E-06
   76.9000  4.170888E-06
   77.0000  4.163982E-06
   77.1000  4.157233E-06
   77.2000  4.150639E-06
   77.3000  4.144086E-06
   77.4000  4.137571E-06
